# omega0=1, alpha=0.25
# theta0=0.5, theta_dot0=0
# t_start=0, t_end=50, h=0.00911928
#   t          x(t)                 v(t)       
0  5.000000000000000e-01  0.000000000000000e+00
9.119282013323059e-02 4.980227820256796e-01 -4.317298730483130e-02
1.823856402664613e-01 4.921649407672437e-01 -8.506101615167178e-02
2.735784603996920e-01 4.825563227654995e-01 -1.253885738235200e-01
3.647712805329227e-01 4.693512670371138e-01 -1.638940391112762e-01
4.559641006661534e-01 4.527273269743613e-01 -2.003299838944909e-01
5.471569207993838e-01 4.328839491611285e-01 -2.344638244864507e-01
6.383497409326140e-01 4.100410755673279e-01 -2.660788526315957e-01
7.295425610658441e-01 3.844376345369424e-01 -2.949756392415127e-01
8.207353811990743e-01 3.563298882623596e-01 -3.209737681610014e-01
9.119282013323045e-01 3.259896098602312e-01 -3.439138244050650e-01
1.003121021465535e+00 2.937020713716125e-01 -3.636595334165492e-01
1.094313841598765e+00 2.597638344588759e-01 -3.800999269225493e-01
1.185506661731995e+00 2.244803475521409e-01 -3.931513986248129e-01
1.276699481865225e+00 1.881633658612279e-01 -4.027595104758706e-01
1.367892301998455e+00 1.511282230859678e-01 -4.089004182017557e-01
1.459085122131685e+00 1.136909948883534e-01 -4.115818027058324e-01
1.550277942264916e+00 7.616560336696759e-02 -4.108432207696422e-01
1.641470762398146e+00 3.886091818514407e-02 -4.067558219266830e-01
1.732663582531376e+00 2.077913164551545e-03 -3.994214157074235e-01
1.823856402664606e+00 -3.389306314222313e-02 -3.889709114292598e-01
1.915049222797836e+00 -6.877484805350573e-02 -3.755621880909758e-01
2.006242042931067e+00 -1.023058083514996e-01 -3.593774818210968e-01
2.097434863064297e+00 -1.342419277329111e-01 -3.406204004722062e-01
2.188627683197527e+00 -1.643586096436833e-01 -3.195126879737059e-01
2.279820503330757e+00 -1.924521784365229e-01 -2.962908645475314e-01
2.371013323463987e+00 -2.183410731028120e-01 -2.712028633790702e-01
2.462206143597217e+00 -2.418667382772158e-01 -2.445047711217066e-01
2.553398963730448e+00 -2.628942261727816e-01 -2.164577605509104e-01
2.644591783863678e+00 -2.813125301396696e-01 -1.873252809138946e-01
2.735784603996908e+00 -2.970346754136184e-01 -1.573705472201931e-01
2.826977424130138e+00 -3.099975952844504e-01 -1.268543458870393e-01
2.918170244263368e+00 -3.201618214922842e-01 -9.603315246354162e-02
3.009363064396598e+00 -3.275110164057254e-01 -6.515753886937166e-02
3.100555884529828e+00 -3.320513718031658e-01 -3.447083352067891e-02
3.191748704663059e+00 -3.338108952724450e-01 -4.207988288559908e-03
3.282941524796289e+00 -3.328386007930390e-01 2.540539850587262e-02
3.374134344929519e+00 -3.292036153869014e-01 5.415395415262625e-02
3.465327165062749e+00 -3.229942092046560e-01 8.183334608036895e-02
3.556519985195979e+00 -3.143167523883550e-01 1.082510792251945e-01
3.647712805329209e+00 -3.032945987932716e-01 1.332273069651608e-01
3.738905625462440e+00 -2.900668943611521e-01 1.565956748892260e-01
3.830098445595670e+00 -2.747873067421833e-01 1.782042042560454e-01
3.921291265728900e+00 -2.576226727107453e-01 1.979162094861608e-01
4.012484085862130e+00 -2.387515609813330e-01 2.156112322585553e-01
4.103676905995361e+00 -2.183627501021469e-01 2.311859645324501e-01
4.194869726128591e+00 -1.966536240136721e-01 2.445551247757437e-01
4.286062546261821e+00 -1.738284913802091e-01 2.556522464025416e-01
4.377255366395051e+00 -1.500968386636866e-01 2.644303352728960e-01
4.468448186528281e+00 -1.256715308170759e-01 2.708623542406658e-01
4.559641006661511e+00 -1.007669771321253e-01 2.749414970635993e-01
4.650833826794742e+00 -7.559728290474839e-02 2.766812211839843e-01
4.742026646927972e+00 -5.037440994351871e-02 2.761150183958033e-01
4.833219467061202e+00 -2.530637036365046e-02 2.732959135018712e-01
4.924412287194432e+00 -5.954784747029223e-04 2.682956928807906e-01
5.015605107327662e+00 2.356331514075264e-02 2.612038765365277e-01
5.106797927460892e+00 4.698398499377666e-02 2.521264578413840e-01
5.197990747594122e+00 6.949086776611051e-02 2.411844440716392e-01
5.289183567727353e+00 9.091995870045669e-02 2.285122374190720e-01
5.380376387860583e+00 1.111200547262626e-01 2.142559001062236e-01
5.471569207993813e+00 1.299537357974724e-01 1.985713484400888e-01
5.562762028127043e+00 1.472981799621995e-01 1.816225192362205e-01
5.653954848260273e+00 1.630458114925283e-01 1.635795483570011e-01
5.745147668393503e+00 1.771047847878798e-01 1.446169956065328e-01
5.836340488526734e+00 1.893993095875111e-01 1.249121434752532e-01
5.927533308659964e+00 1.998698252002503e-01 1.046433898300452e-01
6.018726128793194e+00 2.084730329502868e-01 8.398874718265806e-02
6.109918948926424e+00 2.151817968651091e-01 6.312445416194733e-02
6.201111769059654e+00 2.199849228574120e-01 4.222369869231465e-02
6.292304589192884e+00 2.228868263729353e-01 2.145544745849005e-02
6.383497409326115e+00 2.239070978101717e-01 9.833727127505137e-04
6.474690229459345e+00 2.230799740977089e-01 -1.903513456520001e-02
6.565883049592575e+00 2.204537237749462e-01 -3.844987674108540e-02
6.657075869725805e+00 2.160899518894097e-01 -5.711869768391955e-02
6.748268689859035e+00 2.100628301115436e-01 -7.490827599700889e-02
6.839461509992265e+00 2.024582567675611e-01 -9.169486957020509e-02
6.930654330125495e+00 1.933729510693973e-01 -1.073650143787946e-01
7.021847150258726e+00 1.829134857170288e-01 -1.218161768609434e-01
7.113039970391956e+00 1.711952622727843e-01 -1.349573556532552e-01
7.204232790525186e+00 1.583414342424444e-01 -1.467096252463944e-01
7.295425610658416e+00 1.444817836012676e-01 -1.570066114983281e-01
7.386618430791646e+00 1.297515575105608e-01 -1.657948871197269e-01
7.477811250924876e+00 1.142902731018157e-01 -1.730342743698148e-01
7.569004071058107e+00 9.824049937048382e-02 -1.786980423452363e-01
7.660196891191337e+00 8.174662632661564e-02 -1.827729874072050e-01
7.751389711324567e+00 6.495363250492864e-02 -1.852593873963136e-01
7.842582531457797e+00 4.800586266268815e-02 -1.861708231847246e-01
7.933775351591027e+00 3.104582792628258e-02 -1.855338646106378e-01
8.024968171724257e+00 1.421304074306779e-02 -1.833876216889846e-01
8.116160991857488e+00 -2.357103266512253e-03 -1.797831659345321e-01
8.207353811990718e+00 -1.853438507693186e-02 -1.747828304096917e-01
8.298546632123948e+00 -3.419475310916404e-02 -1.684594004819993e-01
8.389739452257178e+00 -4.922123585380513e-02 -1.608952100480614e-01
8.480932272390408e+00 -6.350476839791898e-02 -1.521811600079377e-01
8.572125092523638e+00 -7.694492657953549e-02 -1.424156769745776e-01
8.663317912656868e+00 -8.945056415639434e-02 -1.317036305594949e-01
8.754510732790099e+00 -1.009403500336494e-01 -1.201552271319020e-01
8.845703552923329e+00 -1.113432041798746e-01 -1.078848968004264e-01
8.936896373056559e+00 -1.205986323136319e-01 -9.501018865170727e-02
9.028089193189789e+00 -1.286569607197340e-01 -8.165068716278669e-02
9.119282013323019e+00 -1.354794736264413e-01 -6.792696036041179e-02
9.210474833456249e+00 -1.410384564295262e-01 -5.395954790393916e-02
9.301667653589480e+00 -1.453171486890154e-01 -3.986799497849117e-02
9.392860473722710e+00 -1.483096112655302e-01 -2.576993583561253e-02
9.484053293855940e+00 -1.500205122323617e-01 -1.178022911243990e-02
9.575246113989170e+00 -1.504648363313705e-01 1.989854235807633e-03
9.666438934122400e+00 -1.496675227745203e-01 1.543339041121785e-02
9.757631754255630e+00 -1.476630361685286e-01 2.844851009846725e-02
9.848824574388860e+00 -1.444948752959739e-01 4.093905410415329e-02
9.940017394522091e+00 -1.402150244559167e-01 5.281517746059945e-02
1.003121021465532e+01 -1.348833520776490e-01 6.399390157757846e-02
1.012240303478855e+01 -1.285669613914074e-01 7.439961330057090e-02
1.021359585492178e+01 -1.213394980795680e-01 8.396450895230721e-02
1.030478867505501e+01 -1.132804200416490e-01 9.262898069443556e-02
1.039598149518824e+01 -1.044742346783168e-01 1.003419419387242e-01
1.048717431532147e+01 -9.500970941787089e-02 1.070610881383918e-01
1.057836713545470e+01 -8.497906155155231e-02 1.127530891570346e-01
1.066955995558793e+01 -7.447713378551880e-02 1.173937095798966e-01
1.076075277572116e+01 -6.360056222937295e-02 1.209678538105599e-01
1.085194559585439e+01 -5.244694379578992e-02 1.234695335721593e-01
1.094313841598762e+01 -4.111401015738836e-02 1.249017564702831e-01
1.103433123612085e+01 -2.969881547398552e-02 1.252763355202021e-01
1.112552405625408e+01 -1.829694504992025e-02 1.246136209249794e-01
1.121671687638731e+01 -7.001751898088172e-03 1.229421568356184e-01
1.130790969652054e+01 4.096372127145523e-03 1.202982672491978e-01
1.139910251665377e+01 1.491068440653862e-02 1.167255765287260e-01
1.149029533678700e+01 2.535873317501701e-02 1.122744711908244e-01
1.158148815692023e+01 3.536294766699211e-02 1.070015105492818e-01
1.167268097705346e+01 4.485117249696111e-02 1.009687944856264e-01
1.176387379718669e+01 5.375714275925526e-02 9.424329702219857e-02
1.185506661731992e+01 6.202089712969953e-02 8.689617449750114e-02
1.194625943745315e+01 6.958912704996760e-02 7.900205700408935e-02
1.203745225758638e+01 7.641546084982068e-02 7.063833137715363e-02
1.212864507771961e+01 8.246068239387844e-02 6.188442346009124e-02
1.221983789785284e+01 8.769288451303825e-02 5.282108667219335e-02
1.231103071798607e+01 9.208755808587539e-02 4.352970311692831e-02
1.240222353811930e+01 9.562761816697078e-02 3.409160265030736e-02
1.249341635825254e+01 9.830336901644252e-02 2.458740452624894e-02
1.258460917838577e+01 1.001124102714548e-01 1.509638549112071e-02
1.267580199851900e+01 1.010594868229473e-01 5.695877544587450e-03
1.276699481865223e+01 1.011562852284928e-01 -3.539301960480450e-03
1.285818763878546e+01 1.004211797156681e-01 -1.253738563028689e-02
1.294938045891869e+01 9.887893102061875e-02 -2.123015481066272e-02
1.304057327905192e+01 9.656034147404075e-02 -2.955340008863149e-02
1.313176609918515e+01 9.350186990065006e-02 -3.744734187528688e-02
1.322295891931838e+01 8.974521004537132e-02 -4.485700947380379e-02
1.331415173945161e+01 8.533683638451128e-02 -5.173257704457628e-02
1.340534455958484e+01 8.032752132494497e-02 -5.802965488214814e-02
1.349653737971807e+01 7.477182793801454e-02 -6.370953444443947e-02
1.358773019985130e+01 6.872758251411895e-02 -6.873938564910002e-02
1.367892301998453e+01 6.225533135347361e-02 -7.309240509484122e-02
1.377011584011776e+01 5.541778632129329e-02 -7.674791409105781e-02
1.386130866025099e+01 4.827926378383485e-02 -7.969140569341902e-02
1.395250148038422e+01 4.090512159720725e-02 -8.191454034533124e-02
1.404369430051745e+01 3.336119883593187e-02 -8.341509020696640e-02
1.413488712065068e+01 2.571326291628398e-02 -8.419683280020916e-02
1.422607994078391e+01 1.802646868542446e-02 -8.426939518952199e-02
1.431727276091714e+01 1.036483390818635e-02 -8.364805053188855e-02
1.440846558105037e+01 2.790735388298669e-03 -8.235346943836500e-02
1.449965840118360e+01 -4.635570288684094e-03 -8.041142917004253e-02
1.459085122131683e+01 -1.185639770367648e-02 -7.785248421884586e-02
1.468204404145006e+01 -1.881705190163703e-02 -7.471160227828245e-02
1.477323686158329e+01 -2.546621307912667e-02 -7.102776997523182e-02
1.486442968171652e+01 -3.175628411411011e-02 -6.684357300065522e-02
1.495562250184975e+01 -3.764369882142051e-02 -6.220475543995010e-02
1.504681532198298e+01 -4.308918925859221e-02 -5.715976316346428e-02
1.513800814211621e+01 -4.805801084901843e-02 -5.175927610052671e-02
1.522920096224944e+01 -5.252012452421947e-02 -4.605573409677295e-02
1.532039378238267e+01 -5.645033550714354e-02 -4.010286085844800e-02
1.541158660251590e+01 -5.982838875797692e-02 -3.395519023484980e-02
1.550277942264913e+01 -6.263902147853906e-02 -2.766759879814768e-02
1.559397224278236e+01 -6.487197341815874e-02 -2.129484836520671e-02
1.568516506291559e+01 -6.652195604161573e-02 -1.489114178413581e-02
1.577635788304882e+01 -6.758858190823896e-02 -8.509694992159778e-03
1.586755070318205e+01 -6.807625587159577e-02 -2.202328051287592e-03
1.595874352331528e+01 -6.799402994318451e-02 3.980922408986372e-03
1.604993634344851e+01 -6.735542387342808e-02 9.992167163564407e-03
1.614112916358174e+01 -6.617821369149833e-02 1.578600282406862e-02
1.623232198371497e+01 -6.448419061440690e-02 2.131982297776859e-02
1.632351480384820e+01 -6.229889288734303e-02 2.655410046067404e-02
1.641470762398143e+01 -5.965131325285605e-02 3.145263936154737e-02
1.650590044411466e+01 -5.657358486693462e-02 3.598279551821873e-02
1.659709326424789e+01 -5.310064858538678e-02 4.011566443544927e-02
1.668828608438112e+01 -4.926990463354331e-02 4.382623573192966e-02
1.677947890451435e+01 -4.512085174494838e-02 4.709351341886701e-02
1.687067172464758e+01 -4.069471690864566e-02 4.990060152834313e-02
1.696186454478081e+01 -3.603407889789472e-02 5.223475484849541e-02
1.705305736491404e+01 -3.118248876353003e-02 5.408739478460829e-02
1.714425018504727e+01 -2.618409046067684e-02 5.545409064818550e-02
1.723544300518050e+01 -2.108324473643571e-02 5.633450697569244e-02
1.732663582531373e+01 -1.592415933718826e-02 5.673231778882521e-02
1.741782864544696e+01 -1.075052849673083e-02 5.665508902144910e-02
1.750902146558019e+01 -5.605184540596363e-03 5.611413064648888e-02
1.760021428571342e+01 -5.297642885385977e-04 5.512432033050862e-02
1.769140710584665e+01 4.435607242145926e-03 5.370390071622268e-02
1.778259992597988e+01 9.252613532642265e-03 5.187425267625567e-02
1.787379274611311e+01 1.388502158161349e-02 4.965964708885993e-02
1.796498556624634e+01 1.829893341133625e-02 4.708697785329614e-02
1.805617838637957e+01 2.246301247895244e-02 4.418547898624227e-02
1.814737120651280e+01 2.634868367387514e-02 4.098642871980405e-02
1.823856402664603e+01 2.993030585066429e-02 3.752284355713739e-02
1.832975684677927e+01 3.318531611628222e-02 3.382916523566119e-02
1.842094966691250e+01 3.609434535792790e-02 2.994094350400745e-02
1.851214248704573e+01 3.864130475939302e-02 2.589451754192670e-02
1.860333530717896e+01 4.081344330730440e-02 2.172669874771285e-02
1.869452812731219e+01 4.260137653144606e-02 1.747445749098498e-02
1.878572094744542e+01 4.399908695383283e-02 1.317461628543657e-02
1.887691376757865e+01 4.500389693807075e-02 8.863551681599149e-03
1.896810658771188e+01 4.561641483296412e-02 4.576907018262518e-03
1.905929940784511e+01 4.584045549186586e-02 3.493180065778381e-04
1.915049222797834e+01 4.568293642174955e-02 -3.785847044291565e-03
1.924168504811157e+01 4.515375097344537e-02 -7.796730715148061e-03
1.933287786824480e+01 4.426562012706794e-02 -1.165321219573920e-02
1.942407068837803e+01 4.303392455454148e-02 -1.532711391256632e-02
1.951526350851126e+01 4.147651875442614e-02 -1.879238790281771e-02
1.960645632864449e+01 3.961352915300510e-02 -2.202528093140443e-02
1.969764914877772e+01 3.746713814972361e-02 -2.500447750939193e-02
1.978884196891095e+01 3.506135615436202e-02 -2.771122013647887e-02
1.988003478904418e+01 3.242178371744351e-02 -3.012940625876206e-02
1.997122760917741e+01 2.957536589389652e-02 -3.224566160663283e-02
2.006242042931064e+01 2.655014100243883e-02 -3.404938975652231e-02
2.015361324944387e+01 2.337498594905801e-02 -3.553279794397672e-02
2.024480606957710e+01 2.007936027192506e-02 -3.669089934316280e-02
2.033599888971033e+01 1.669305103681750e-02 -3.752149221770955e-02
2.042719170984356e+01 1.324592066654119e-02 -3.802511653754698e-02
2.051838452997679e+01 9.767659725052022e-03 -3.820498884342172e-02
2.060957735011002e+01 6.287546597373916e-03 -3.806691632205609e-02
2.070077017024325e+01 2.834215910652326e-03 -3.761919122734208e-02
2.079196299037648e+01 -5.645625692755822e-04 -3.687246694342249e-02
2.088315581050971e+01 -3.882092956347459e-03 -3.583961713111034e-02
2.097434863064294e+01 -7.092948705768271e-03 -3.453557952728786e-02
2.106554145077617e+01 -1.017315319476942e-02 -3.297718607563700e-02
2.115673427090940e+01 -1.310034425609259e-02 -3.118298115478031e-02
2.124792709104263e+01 -1.585392166188087e-02 -2.917302973576672e-02
2.133911991117586e+01 -1.841517672488065e-02 -2.696871734456678e-02
2.143031273130909e+01 -2.076740335606861e-02 -2.459254372719361e-02
2.152150555144232e+01 -2.289599009106982e-02 -2.206791211613325e-02
2.161269837157555e+01 -2.478849277017999e-02 -1.941891597830385e-02
2.170389119170878e+01 -2.643468772674069e-02 -1.667012508847059e-02
2.179508401184201e+01 -2.782660550450315e-02 -1.384637271986242e-02
2.188627683197524e+01 -2.895854528509790e-02 -1.097254567772163e-02
2.197746965210847e+01 -2.982707036063648e-02 -8.073378823726635e-03
2.206866247224170e+01 -3.043098513282494e-02 -5.173255651624476e-03
2.215985529237493e+01 -3.077129425795458e-02 -2.296016378777101e-03
2.225104811250816e+01 -3.085114468609427e-02 5.352250837810963e-04
2.234224093264139e+01 -3.067575146221031e-02 3.298254027472034e-03
2.243343375277462e+01 -3.025230826636079e-02 5.971916564654006e-03
2.252462657290785e+01 -2.958988376920616e-02 8.536268940500618e-03
2.261581939304108e+01 -2.869930496756156e-02 1.097271362708695e-02
2.270701221317431e+01 -2.759302874234461e-02 1.326412140876431e-02
2.279820503330754e+01 -2.628500294782800e-02 1.539493879043410e-02
2.288939785344077e+01 -2.479051839639301e-02 1.735128018490588e-02
2.298059067357400e+01 -2.312605314682205e-02 1.912100446191509e-02
2.307178349370723e+01 -2.130911053641256e-02 2.069377556927630e-02
2.316297631384046e+01 -1.935805241772224e-02 2.206110706563007e-02
2.325416913397369e+01 -1.729192906949339e-02 2.321639053372108e-02
2.334536195410692e+01 -1.513030724823937e-02 2.415490797236404e-02
2.343655477424015e+01 -1.289309783217453e-02 2.487382839328020e-02
2.352774759437338e+01 -1.060038448278758e-02 2.537218897473094e-02
2.361894041450661e+01 -8.272254711659696e-03 2.565086124611576e-02
2.371013323463984e+01 -5.928634691492241e-03 2.571250289513196e-02
2.380132605477307e+01 -3.589129091233737e-03 2.556149590036752e-02
2.389251887490630e+01 -1.272867146304840e-03 2.520387179598607e-02
2.398371169503953e+01 1.001643903045974e-03 2.464722497020452e-02
2.407490451517276e+01 3.216656958413939e-03 2.390061498442252e-02
2.416609733530600e+01 5.355313841562888e-03 2.297445897416881e-02
2.425729015543923e+01 7.401763850749206e-03 2.188041525571499e-02
2.434848297557246e+01 9.341271346275354e-03 2.063125931273386e-02
2.443967579570569e+01 1.116031172542924e-02 1.924075337544721e-02
2.453086861583892e+01 1.284665525879170e-02 1.772351083025705e-02
2.462206143597215e+01 1.438943837348513e-02 1.609485671105439e-02
2.471325425610538e+01 1.577922208318111e-02 1.437068552462523e-02
2.480444707623861e+01 1.700803737851621e-02 1.256731765237684e-02
2.489563989637184e+01 1.806941750397111e-02 1.070135554968276e-02
2.498683271650507e+01 1.895841715730765e-02 8.789540933288060e-03
2.507802553663830e+01 1.967161875446266e-02 6.848614107289269e-03
2.516921835677153e+01 2.020712600558157e-02 4.895176530095779e-03
2.526041117690476e+01 2.056454514593258e-02 2.945557669377871e-03
2.535160399703799e+01 2.074495425814712e-02 1.015687130167808e-03
2.544279681717122e+01 2.075086120903661e-02 -8.790270261859294e-04
2.553398963730445e+01 2.058615080465856e-02 -2.723812926855923e-03
2.562518245743768e+01 2.025602184093509e-02 -4.504641727345929e-03
2.571637527757091e+01 1.976691479361027e-02 -6.208325957558159e-03
2.580756809770414e+01 1.912643095037001e-02 -7.822608768497535e-03
2.589876091783737e+01 1.834324383929285e-02 -9.336243559546506e-03
2.598995373797060e+01 1.742700385124883e-02 -1.073906355374527e-02
2.608114655810383e+01 1.638823698926431e-02 -1.202204097745847e-02
2.617233937823706e+01 1.523823870511296e-02 -1.317733559068980e-02
2.626353219837029e+01 1.398896380241655e-02 -1.419833240458893e-02
2.635472501850352e+01 1.265291339633266e-02 -1.507966851281746e-02
2.644591783863675e+01 1.124301992251096e-02 -1.581724905280424e-02
2.653711065876998e+01 9.772531182513785e-03 -1.640825240088674e-02
2.662830347890321e+01 8.254894399477993e-03 -1.685112479123637e-02
2.671949629903644e+01 6.703641236663100e-03 -1.714556463160526e-02
2.681068911916967e+01 5.132274702969913e-03 -1.729249686860456e-02
2.690188193930290e+01 3.554158833872305e-03 -1.729403783072500e-02
